# energy(eV) intensity(au)
3.000000 2.000801e-04
3.008347 2.194803e-04
3.016694 2.406837e-04
3.025042 2.638496e-04
3.033389 2.891511e-04
3.041736 3.167750e-04
3.050083 3.469239e-04
3.058431 3.798168e-04
3.066778 4.156904e-04
3.075125 4.548005e-04
3.083472 4.974235e-04
3.091820 5.438575e-04
3.100167 5.944245e-04
3.108514 6.494715e-04
3.116861 7.093724e-04
3.125209 7.745303e-04
3.133556 8.453788e-04
3.141903 9.223847e-04
3.150250 1.006050e-03
3.158598 1.096914e-03
3.166945 1.195556e-03
3.175292 1.302599e-03
3.183639 1.418709e-03
3.191987 1.544603e-03
3.200334 1.681047e-03
3.208681 1.828863e-03
3.217028 1.988929e-03
3.225376 2.162185e-03
3.233723 2.349636e-03
3.242070 2.552355e-03
3.250417 2.771488e-03
3.258765 3.008257e-03
3.267112 3.263963e-03
3.275459 3.539995e-03
3.283806 3.837828e-03
3.292154 4.159035e-03
3.300501 4.505285e-03
3.308848 4.878351e-03
3.317195 5.280116e-03
3.325543 5.712576e-03
3.333890 6.177846e-03
3.342237 6.678167e-03
3.350584 7.215910e-03
3.358932 7.793580e-03
3.367279 8.413825e-03
3.375626 9.079439e-03
3.383973 9.793369e-03
3.392321 1.055872e-02
3.400668 1.137876e-02
3.409015 1.225694e-02
3.417362 1.319686e-02
3.425710 1.420232e-02
3.434057 1.527731e-02
3.442404 1.642599e-02
3.450751 1.765275e-02
3.459098 1.896214e-02
3.467446 2.035897e-02
3.475793 2.184820e-02
3.484140 2.343506e-02
3.492487 2.512496e-02
3.500835 2.692356e-02
3.509182 2.883673e-02
3.517529 3.087057e-02
3.525876 3.303140e-02
3.534224 3.532580e-02
3.542571 3.776056e-02
3.550918 4.034270e-02
3.559265 4.307949e-02
3.567613 4.597840e-02
3.575960 4.904717e-02
3.584307 5.229372e-02
3.592654 5.572622e-02
3.601002 5.935306e-02
3.609349 6.318281e-02
3.617696 6.722427e-02
3.626043 7.148643e-02
3.634391 7.597846e-02
3.642738 8.070970e-02
3.651085 8.568967e-02
3.659432 9.092804e-02
3.667780 9.643459e-02
3.676127 1.022193e-01
3.684474 1.082921e-01
3.692821 1.146631e-01
3.701169 1.213426e-01
3.709516 1.283407e-01
3.717863 1.356677e-01
3.726210 1.433339e-01
3.734558 1.513494e-01
3.742905 1.597245e-01
3.751252 1.684692e-01
3.759599 1.775936e-01
3.767947 1.871074e-01
3.776294 1.970204e-01
3.784641 2.073421e-01
3.792988 2.180817e-01
3.801336 2.292482e-01
3.809683 2.408502e-01
3.818030 2.528961e-01
3.826377 2.653940e-01
3.834725 2.783513e-01
3.843072 2.917751e-01
3.851419 3.056720e-01
3.859766 3.200483e-01
3.868114 3.349093e-01
3.876461 3.502600e-01
3.884808 3.661047e-01
3.893155 3.824470e-01
3.901503 3.992898e-01
3.909850 4.166352e-01
3.918197 4.344845e-01
3.926544 4.528383e-01
3.934891 4.716963e-01
3.943239 4.910572e-01
3.951586 5.109190e-01
3.959933 5.312784e-01
3.968280 5.521314e-01
3.976628 5.734730e-01
3.984975 5.952971e-01
3.993322 6.175966e-01
4.001669 6.403632e-01
4.010017 6.635878e-01
4.018364 6.872599e-01
4.026711 7.113680e-01
4.035058 7.358998e-01
4.043406 7.608413e-01
4.051753 7.861780e-01
4.060100 8.118939e-01
4.068447 8.379721e-01
4.076795 8.643945e-01
4.085142 8.911419e-01
4.093489 9.181943e-01
4.101836 9.455303e-01
4.110184 9.731278e-01
4.118531 1.000964e+00
4.126878 1.029014e+00
4.135225 1.057253e+00
4.143573 1.085655e+00
4.151920 1.114194e+00
4.160267 1.142841e+00
4.168614 1.171570e+00
4.176962 1.200350e+00
4.185309 1.229152e+00
4.193656 1.257947e+00
4.202003 1.286703e+00
4.210351 1.315389e+00
4.218698 1.343975e+00
4.227045 1.372427e+00
4.235392 1.400716e+00
4.243740 1.428807e+00
4.252087 1.456670e+00
4.260434 1.484271e+00
4.268781 1.511579e+00
4.277129 1.538561e+00
4.285476 1.565187e+00
4.293823 1.591423e+00
4.302170 1.617239e+00
4.310518 1.642605e+00
4.318865 1.667489e+00
4.327212 1.691862e+00
4.335559 1.715695e+00
4.343907 1.738960e+00
4.352254 1.761628e+00
4.360601 1.783674e+00
4.368948 1.805070e+00
4.377295 1.825793e+00
4.385643 1.845819e+00
4.393990 1.865123e+00
4.402337 1.883685e+00
4.410684 1.901484e+00
4.419032 1.918501e+00
4.427379 1.934716e+00
4.435726 1.950114e+00
4.444073 1.964678e+00
4.452421 1.978395e+00
4.460768 1.991251e+00
4.469115 2.003235e+00
4.477462 2.014335e+00
4.485810 2.024544e+00
4.494157 2.033855e+00
4.502504 2.042259e+00
4.510851 2.049754e+00
4.519199 2.056336e+00
4.527546 2.062002e+00
4.535893 2.066752e+00
4.544240 2.070587e+00
4.552588 2.073509e+00
4.560935 2.075521e+00
4.569282 2.076627e+00
4.577629 2.076833e+00
4.585977 2.076147e+00
4.594324 2.074576e+00
4.602671 2.072129e+00
4.611018 2.068818e+00
4.619366 2.064652e+00
4.627713 2.059645e+00
4.636060 2.053810e+00
4.644407 2.047161e+00
4.652755 2.039712e+00
4.661102 2.031480e+00
4.669449 2.022481e+00
4.677796 2.012733e+00
4.686144 2.002253e+00
4.694491 1.991059e+00
4.702838 1.979172e+00
4.711185 1.966609e+00
4.719533 1.953391e+00
4.727880 1.939538e+00
4.736227 1.925071e+00
4.744574 1.910012e+00
4.752922 1.894379e+00
4.761269 1.878197e+00
4.769616 1.861485e+00
4.777963 1.844265e+00
4.786311 1.826560e+00
4.794658 1.808390e+00
4.803005 1.789778e+00
4.811352 1.770745e+00
4.819699 1.751313e+00
4.828047 1.731504e+00
4.836394 1.711338e+00
4.844741 1.690837e+00
4.853088 1.670022e+00
4.861436 1.648913e+00
4.869783 1.627532e+00
4.878130 1.605899e+00
4.886477 1.584033e+00
4.894825 1.561955e+00
4.903172 1.539683e+00
4.911519 1.517237e+00
4.919866 1.494636e+00
4.928214 1.471898e+00
4.936561 1.449041e+00
4.944908 1.426083e+00
4.953255 1.403040e+00
4.961603 1.379931e+00
4.969950 1.356772e+00
4.978297 1.333578e+00
4.986644 1.310365e+00
4.994992 1.287150e+00
5.003339 1.263946e+00
5.011686 1.240769e+00
5.020033 1.217632e+00
5.028381 1.194549e+00
5.036728 1.171535e+00
5.045075 1.148601e+00
5.053422 1.125760e+00
5.061770 1.103025e+00
5.070117 1.080407e+00
5.078464 1.057918e+00
5.086811 1.035569e+00
5.095159 1.013370e+00
5.103506 9.913327e-01
5.111853 9.694657e-01
5.120200 9.477791e-01
5.128548 9.262821e-01
5.136895 9.049834e-01
5.145242 8.838915e-01
5.153589 8.630147e-01
5.161937 8.423605e-01
5.170284 8.219366e-01
5.178631 8.017498e-01
5.186978 7.818070e-01
5.195326 7.621146e-01
5.203673 7.426786e-01
5.212020 7.235046e-01
5.220367 7.045982e-01
5.228715 6.859644e-01
5.237062 6.676078e-01
5.245409 6.495330e-01
5.253756 6.317441e-01
5.262104 6.142447e-01
5.270451 5.970384e-01
5.278798 5.801285e-01
5.287145 5.635176e-01
5.295492 5.472085e-01
5.303840 5.312034e-01
5.312187 5.155043e-01
5.320534 5.001129e-01
5.328881 4.850305e-01
5.337229 4.702585e-01
5.345576 4.557975e-01
5.353923 4.416483e-01
5.362270 4.278112e-01
5.370618 4.142862e-01
5.378965 4.010733e-01
5.387312 3.881720e-01
5.395659 3.755816e-01
5.404007 3.633014e-01
5.412354 3.513301e-01
5.420701 3.396665e-01
5.429048 3.283091e-01
5.437396 3.172561e-01
5.445743 3.065057e-01
5.454090 2.960555e-01
5.462437 2.859035e-01
5.470785 2.760471e-01
5.479132 2.664837e-01
5.487479 2.572104e-01
5.495826 2.482243e-01
5.504174 2.395224e-01
5.512521 2.311014e-01
5.520868 2.229579e-01
5.529215 2.150885e-01
5.537563 2.074896e-01
5.545910 2.001575e-01
5.554257 1.930884e-01
5.562604 1.862785e-01
5.570952 1.797239e-01
5.579299 1.734204e-01
5.587646 1.673640e-01
5.595993 1.615507e-01
5.604341 1.559761e-01
5.612688 1.506362e-01
5.621035 1.455266e-01
5.629382 1.406431e-01
5.637730 1.359813e-01
5.646077 1.315370e-01
5.654424 1.273058e-01
5.662771 1.232834e-01
5.671119 1.194655e-01
5.679466 1.158478e-01
5.687813 1.124261e-01
5.696160 1.091959e-01
5.704508 1.061532e-01
5.712855 1.032936e-01
5.721202 1.006131e-01
5.729549 9.810746e-02
5.737896 9.577262e-02
5.746244 9.360454e-02
5.754591 9.159922e-02
5.762938 8.975274e-02
5.771285 8.806120e-02
5.779633 8.652078e-02
5.787980 8.512772e-02
5.796327 8.387833e-02
5.804674 8.276896e-02
5.813022 8.179604e-02
5.821369 8.095608e-02
5.829716 8.024564e-02
5.838063 7.966136e-02
5.846411 7.919994e-02
5.854758 7.885815e-02
5.863105 7.863284e-02
5.871452 7.852093e-02
5.879800 7.851940e-02
5.888147 7.862530e-02
5.896494 7.883576e-02
5.904841 7.914797e-02
5.913189 7.955917e-02
5.921536 8.006671e-02
5.929883 8.066795e-02
5.938230 8.136036e-02
5.946578 8.214144e-02
5.954925 8.300878e-02
5.963272 8.395999e-02
5.971619 8.499277e-02
5.979967 8.610486e-02
5.988314 8.729405e-02
5.996661 8.855820e-02
6.005008 8.989520e-02
6.013356 9.130300e-02
6.021703 9.277957e-02
6.030050 9.432296e-02
6.038397 9.593123e-02
6.046745 9.760249e-02
6.055092 9.933489e-02
6.063439 1.011266e-01
6.071786 1.029759e-01
6.080134 1.048809e-01
6.088481 1.068400e-01
6.096828 1.088514e-01
6.105175 1.109135e-01
6.113523 1.130246e-01
6.121870 1.151830e-01
6.130217 1.173872e-01
6.138564 1.196356e-01
6.146912 1.219264e-01
6.155259 1.242583e-01
6.163606 1.266295e-01
6.171953 1.290386e-01
6.180301 1.314839e-01
6.188648 1.339639e-01
6.196995 1.364772e-01
6.205342 1.390221e-01
6.213689 1.415971e-01
6.222037 1.442006e-01
6.230384 1.468312e-01
6.238731 1.494872e-01
6.247078 1.521672e-01
6.255426 1.548696e-01
6.263773 1.575928e-01
6.272120 1.603353e-01
6.280467 1.630955e-01
6.288815 1.658718e-01
6.297162 1.686626e-01
6.305509 1.714665e-01
6.313856 1.742817e-01
6.322204 1.771067e-01
6.330551 1.799399e-01
6.338898 1.827796e-01
6.347245 1.856242e-01
6.355593 1.884722e-01
6.363940 1.913218e-01
6.372287 1.941714e-01
6.380634 1.970193e-01
6.388982 1.998640e-01
6.397329 2.027037e-01
6.405676 2.055367e-01
6.414023 2.083614e-01
6.422371 2.111762e-01
6.430718 2.139792e-01
6.439065 2.167689e-01
6.447412 2.195435e-01
6.455760 2.223014e-01
6.464107 2.250408e-01
6.472454 2.277601e-01
6.480801 2.304576e-01
6.489149 2.331317e-01
6.497496 2.357805e-01
6.505843 2.384026e-01
6.514190 2.409961e-01
6.522538 2.435595e-01
6.530885 2.460911e-01
6.539232 2.485892e-01
6.547579 2.510523e-01
6.555927 2.534788e-01
6.564274 2.558670e-01
6.572621 2.582153e-01
6.580968 2.605223e-01
6.589316 2.627864e-01
6.597663 2.650060e-01
6.606010 2.671797e-01
6.614357 2.693059e-01
6.622705 2.713834e-01
6.631052 2.734105e-01
6.639399 2.753860e-01
6.647746 2.773085e-01
6.656093 2.791766e-01
6.664441 2.809891e-01
6.672788 2.827446e-01
6.681135 2.844420e-01
6.689482 2.860801e-01
6.697830 2.876577e-01
6.706177 2.891736e-01
6.714524 2.906269e-01
6.722871 2.920165e-01
6.731219 2.933413e-01
6.739566 2.946005e-01
6.747913 2.957932e-01
6.756260 2.969184e-01
6.764608 2.979753e-01
6.772955 2.989633e-01
6.781302 2.998815e-01
6.789649 3.007294e-01
6.797997 3.015063e-01
6.806344 3.022116e-01
6.814691 3.028448e-01
6.823038 3.034055e-01
6.831386 3.038932e-01
6.839733 3.043076e-01
6.848080 3.046484e-01
6.856427 3.049153e-01
6.864775 3.051081e-01
6.873122 3.052268e-01
6.881469 3.052711e-01
6.889816 3.052411e-01
6.898164 3.051368e-01
6.906511 3.049583e-01
6.914858 3.047056e-01
6.923205 3.043791e-01
6.931553 3.039788e-01
6.939900 3.035052e-01
6.948247 3.029585e-01
6.956594 3.023391e-01
6.964942 3.016475e-01
6.973289 3.008843e-01
6.981636 3.000499e-01
6.989983 2.991449e-01
6.998331 2.981700e-01
7.006678 2.971260e-01
7.015025 2.960135e-01
7.023372 2.948333e-01
7.031720 2.935864e-01
7.040067 2.922735e-01
7.048414 2.908956e-01
7.056761 2.894538e-01
7.065109 2.879489e-01
7.073456 2.863821e-01
7.081803 2.847545e-01
7.090150 2.830671e-01
7.098497 2.813213e-01
7.106845 2.795181e-01
7.115192 2.776589e-01
7.123539 2.757448e-01
7.131886 2.737773e-01
7.140234 2.717576e-01
7.148581 2.696871e-01
7.156928 2.675672e-01
7.165275 2.653993e-01
7.173623 2.631849e-01
7.181970 2.609254e-01
7.190317 2.586223e-01
7.198664 2.562771e-01
7.207012 2.538914e-01
7.215359 2.514665e-01
7.223706 2.490042e-01
7.232053 2.465060e-01
7.240401 2.439734e-01
7.248748 2.414080e-01
7.257095 2.388114e-01
7.265442 2.361852e-01
7.273790 2.335310e-01
7.282137 2.308504e-01
7.290484 2.281450e-01
7.298831 2.254164e-01
7.307179 2.226662e-01
7.315526 2.198960e-01
7.323873 2.171074e-01
7.332220 2.143019e-01
7.340568 2.114812e-01
7.348915 2.086467e-01
7.357262 2.058002e-01
7.365609 2.029430e-01
7.373957 2.000768e-01
7.382304 1.972030e-01
7.390651 1.943231e-01
7.398998 1.914387e-01
7.407346 1.885512e-01
7.415693 1.856620e-01
7.424040 1.827725e-01
7.432387 1.798842e-01
7.440735 1.769984e-01
7.449082 1.741165e-01
7.457429 1.712399e-01
7.465776 1.683697e-01
7.474124 1.655073e-01
7.482471 1.626540e-01
7.490818 1.598109e-01
7.499165 1.569793e-01
7.507513 1.541603e-01
7.515860 1.513551e-01
7.524207 1.485647e-01
7.532554 1.457902e-01
7.540902 1.430328e-01
7.549249 1.402933e-01
7.557596 1.375727e-01
7.565943 1.348721e-01
7.574290 1.321923e-01
7.582638 1.295342e-01
7.590985 1.268986e-01
7.599332 1.242864e-01
7.607679 1.216982e-01
7.616027 1.191350e-01
7.624374 1.165974e-01
7.632721 1.140860e-01
7.641068 1.116015e-01
7.649416 1.091446e-01
7.657763 1.067157e-01
7.666110 1.043155e-01
7.674457 1.019444e-01
7.682805 9.960300e-02
7.691152 9.729165e-02
7.699499 9.501079e-02
7.707846 9.276081e-02
7.716194 9.054205e-02
7.724541 8.835484e-02
7.732888 8.619948e-02
7.741235 8.407621e-02
7.749583 8.198527e-02
7.757930 7.992686e-02
7.766277 7.790116e-02
7.774624 7.590831e-02
7.782972 7.394843e-02
7.791319 7.202160e-02
7.799666 7.012790e-02
7.808013 6.826737e-02
7.816361 6.644001e-02
7.824708 6.464581e-02
7.833055 6.288475e-02
7.841402 6.115677e-02
7.849750 5.946179e-02
7.858097 5.779970e-02
7.866444 5.617040e-02
7.874791 5.457372e-02
7.883139 5.300952e-02
7.891486 5.147762e-02
7.899833 4.997781e-02
7.908180 4.850988e-02
7.916528 4.707360e-02
7.924875 4.566872e-02
7.933222 4.429498e-02
7.941569 4.295210e-02
7.949917 4.163979e-02
7.958264 4.035775e-02
7.966611 3.910565e-02
7.974958 3.788317e-02
7.983306 3.668996e-02
7.991653 3.552569e-02
8.000000 3.438999e-02
